Time[ps]      Etot[eV]     Epot[eV]     Ekin[eV]    T[K]
0.0000        -1787.765    -1813.638       25.873   400.3
0.2000        -1788.550    -1813.421       24.871   384.8
0.4000        -1789.230    -1814.381       25.151   389.2
0.6000        -1789.802    -1815.314       25.512   394.7
0.8000        -1790.297    -1815.238       24.941   385.9
1.0000        -1790.729    -1815.085       24.356   376.9
1.2000        -1791.090    -1813.965       22.874   353.9
1.4000        -1791.416    -1815.282       23.866   369.3
1.6000        -1791.689    -1815.612       23.922   370.1
1.8000        -1791.922    -1816.114       24.193   374.3
2.0000        -1792.119    -1816.530       24.411   377.7
2.2000        -1792.295    -1815.826       23.531   364.1
2.4000        -1792.440    -1816.572       24.133   373.4
2.6000        -1792.563    -1816.483       23.920   370.1
2.8000        -1792.664    -1816.061       23.397   362.0
3.0000        -1792.747    -1816.017       23.270   360.0
3.2000        -1792.820    -1816.188       23.368   361.6
3.4000        -1792.884    -1816.445       23.562   364.6
3.6000        -1792.931    -1816.150       23.219   359.3
3.8000        -1792.970    -1816.251       23.281   360.2
4.0000        -1793.000    -1815.253       22.252   344.3
4.2000        -1793.022    -1815.607       22.586   349.5
4.4000        -1793.040    -1816.416       23.376   361.7
4.6000        -1793.050    -1815.951       22.901   354.3
4.8000        -1793.054    -1815.846       22.792   352.7
5.0000        -1793.057    -1816.077       23.019   356.2
5.2000        -1793.056    -1815.803       22.747   352.0
5.4000        -1793.052    -1815.772       22.720   351.5
5.6000        -1793.046    -1816.127       23.080   357.1
5.8000        -1793.037    -1815.522       22.485   347.9
6.0000        -1793.024    -1816.111       23.087   357.2
6.2000        -1793.010    -1815.873       22.863   353.7
6.4000        -1792.997    -1816.271       23.274   360.1
6.6000        -1792.981    -1815.287       22.306   345.1
6.8000        -1792.963    -1816.084       23.120   357.7
7.0000        -1792.948    -1816.285       23.337   361.1
7.2000        -1792.929    -1816.318       23.389   361.9
7.4000        -1792.909    -1815.487       22.578   349.3
7.6000        -1792.887    -1815.511       22.624   350.1
7.8000        -1792.868    -1816.092       23.224   359.3
8.0000        -1792.848    -1816.444       23.597   365.1
8.2000        -1792.825    -1814.338       21.513   332.9
8.4000        -1792.805    -1815.786       22.981   355.6
8.6000        -1792.783    -1815.198       22.415   346.8
8.8000        -1792.762    -1815.486       22.723   351.6
9.0000        -1792.741    -1816.036       23.295   360.4
9.2000        -1792.719    -1815.527       22.808   352.9
9.4000        -1792.696    -1814.777       22.082   341.7
9.6000        -1792.675    -1816.255       23.579   364.8
9.8000        -1792.652    -1814.986       22.334   345.6
10.0000       -1792.631    -1816.368       23.737   367.3
10.2000       -1792.609    -1815.854       23.245   359.7
10.4000       -1792.587    -1814.873       22.286   344.8
10.6000       -1792.565    -1815.255       22.689   351.1
10.8000       -1792.542    -1814.368       21.825   337.7
11.0000       -1792.520    -1815.654       23.134   357.9
11.2000       -1792.499    -1815.434       22.936   354.9
11.4000       -1792.477    -1815.166       22.689   351.1
11.6000       -1792.455    -1814.830       22.376   346.2
11.8000       -1792.435    -1815.853       23.419   362.3
12.0000       -1792.411    -1814.887       22.476   347.8
12.2000       -1792.390    -1814.768       22.378   346.2
12.4000       -1792.369    -1814.923       22.554   349.0
12.6000       -1792.346    -1815.051       22.705   351.3
12.8000       -1792.326    -1815.273       22.947   355.1
13.0000       -1792.304    -1815.459       23.154   358.3
13.2000       -1792.283    -1815.569       23.286   360.3
13.4000       -1792.260    -1814.384       22.124   342.3
13.6000       -1792.238    -1814.999       22.761   352.2
13.8000       -1792.217    -1814.841       22.624   350.0
14.0000       -1792.195    -1814.785       22.589   349.5
14.2000       -1792.176    -1816.218       24.042   372.0
14.4000       -1792.153    -1814.902       22.748   352.0
14.6000       -1792.132    -1814.903       22.771   352.3
14.8000       -1792.112    -1814.946       22.835   353.3
15.0000       -1792.090    -1815.194       23.104   357.5
15.2000       -1792.069    -1815.418       23.349   361.3
15.4000       -1792.047    -1815.890       23.842   368.9
15.6000       -1792.025    -1815.139       23.114   357.6
15.8000       -1792.004    -1814.732       22.729   351.7
16.0000       -1791.984    -1815.155       23.170   358.5
16.2000       -1791.964    -1816.631       24.667   381.7
16.4000       -1791.943    -1815.753       23.810   368.4
16.6000       -1791.920    -1814.042       22.122   342.3
16.8000       -1791.900    -1815.359       23.459   363.0
17.0000       -1791.879    -1814.858       22.978   355.5
17.2000       -1791.859    -1815.195       23.336   361.1
17.4000       -1791.837    -1815.124       23.288   360.3
17.6000       -1791.817    -1815.683       23.866   369.3
17.8000       -1791.796    -1815.575       23.779   367.9
18.0000       -1791.774    -1815.977       24.203   374.5
18.2000       -1791.753    -1815.797       24.044   372.0
18.4000       -1791.732    -1814.741       23.009   356.0
18.6000       -1791.712    -1814.994       23.282   360.2
18.8000       -1791.691    -1815.515       23.825   368.6
19.0000       -1791.669    -1814.402       22.733   351.7
19.2000       -1791.649    -1815.840       24.191   374.3
19.4000       -1791.628    -1815.572       23.944   370.5
19.6000       -1791.607    -1814.638       23.030   356.3
19.8000       -1791.586    -1815.346       23.760   367.6
20.0000       -1791.566    -1814.746       23.180   358.7
20.2000       -1791.546    -1815.289       23.743   367.4
20.4000       -1791.524    -1814.571       23.046   356.6
20.6000       -1791.503    -1814.635       23.132   357.9
20.8000       -1791.483    -1815.305       23.822   368.6
21.0000       -1791.463    -1814.964       23.501   363.6
21.2000       -1791.441    -1814.623       23.182   358.7
21.4000       -1791.421    -1815.103       23.682   366.4
21.6000       -1791.400    -1814.826       23.425   362.5
21.8000       -1791.379    -1815.000       23.622   365.5
22.0000       -1791.360    -1816.401       25.041   387.5
22.2000       -1791.337    -1814.304       22.967   355.4
22.4000       -1791.316    -1813.455       22.139   342.5
22.6000       -1791.297    -1814.843       23.546   364.3
22.8000       -1791.276    -1814.869       23.593   365.1
23.0000       -1791.255    -1814.505       23.249   359.7
23.2000       -1791.234    -1814.494       23.260   359.9
23.4000       -1791.213    -1814.801       23.588   365.0
23.6000       -1791.193    -1815.047       23.854   369.1
23.8000       -1791.172    -1815.075       23.903   369.8
24.0000       -1791.153    -1815.480       24.327   376.4
24.2000       -1791.132    -1815.681       24.549   379.8
24.4000       -1791.110    -1815.076       23.967   370.8
24.6000       -1791.089    -1815.073       23.984   371.1
24.8000       -1791.068    -1814.090       23.022   356.2
25.0000       -1791.046    -1814.131       23.085   357.2
25.2000       -1791.027    -1815.345       24.319   376.3
25.4000       -1791.007    -1814.928       23.921   370.1
25.6000       -1790.984    -1813.425       22.441   347.2
25.8000       -1790.965    -1814.768       23.803   368.3
26.0000       -1790.944    -1814.572       23.628   365.6
26.2000       -1790.922    -1814.486       23.563   364.6
26.4000       -1790.902    -1814.026       23.123   357.8
26.6000       -1790.881    -1814.572       23.691   366.6
26.8000       -1790.862    -1815.887       25.025   387.2
27.0000       -1790.840    -1814.663       23.823   368.6
27.2000       -1790.819    -1814.913       24.094   372.8
27.4000       -1790.798    -1813.655       22.856   353.6
27.6000       -1790.778    -1814.208       23.431   362.5
27.8000       -1790.758    -1814.975       24.217   374.7
28.0000       -1790.736    -1813.861       23.126   357.8
28.2000       -1790.716    -1814.407       23.691   366.6
28.4000       -1790.695    -1814.439       23.744   367.4
28.6000       -1790.674    -1814.864       24.190   374.3
28.8000       -1790.654    -1814.724       24.070   372.4
29.0000       -1790.632    -1814.553       23.921   370.1
29.2000       -1790.611    -1814.559       23.948   370.5
29.4000       -1790.591    -1814.889       24.297   375.9
29.6000       -1790.570    -1814.287       23.716   367.0
29.8000       -1790.550    -1814.138       23.588   365.0
30.0000       -1790.530    -1815.154       24.624   381.0
30.2000       -1790.509    -1815.076       24.567   380.1
30.4000       -1790.488    -1814.303       23.815   368.5
30.6000       -1790.465    -1813.722       23.257   359.9
30.8000       -1790.448    -1815.542       25.095   388.3
31.0000       -1790.427    -1814.226       23.799   368.2
31.2000       -1790.405    -1814.741       24.336   376.5
31.4000       -1790.385    -1814.756       24.371   377.1
31.6000       -1790.364    -1814.625       24.262   375.4
31.8000       -1790.344    -1814.755       24.412   377.7
32.0000       -1790.324    -1814.175       23.851   369.0
32.2000       -1790.302    -1814.188       23.885   369.6
32.4000       -1790.283    -1814.059       23.777   367.9
32.6000       -1790.262    -1814.854       24.592   380.5
32.8000       -1790.240    -1813.586       23.346   361.2
33.0000       -1790.220    -1814.763       24.543   379.7
33.2000       -1790.199    -1814.925       24.726   382.6
33.4000       -1790.178    -1815.019       24.841   384.4
33.6000       -1790.159    -1814.616       24.457   378.4
33.8000       -1790.137    -1815.304       25.168   389.4
34.0000       -1790.115    -1814.258       24.142   373.5
34.2000       -1790.096    -1814.882       24.786   383.5
34.4000       -1790.075    -1814.321       24.246   375.2
34.6000       -1790.055    -1815.457       25.402   393.0
34.8000       -1790.034    -1813.540       23.505   363.7
35.0000       -1790.013    -1813.844       23.831   368.7
35.2000       -1789.993    -1814.025       24.031   371.8
35.4000       -1789.973    -1815.022       25.049   387.6
35.6000       -1789.953    -1815.020       25.067   387.9
35.8000       -1789.932    -1813.941       24.010   371.5
36.0000       -1789.910    -1812.869       22.959   355.2
36.2000       -1789.892    -1815.270       25.378   392.7
36.4000       -1789.871    -1814.305       24.435   378.1
36.6000       -1789.850    -1813.698       23.847   369.0
36.8000       -1789.830    -1814.275       24.445   378.2
37.0000       -1789.808    -1813.737       23.929   370.2
37.2000       -1789.788    -1813.660       23.871   369.3
37.4000       -1789.768    -1814.066       24.299   376.0
37.6000       -1789.746    -1813.399       23.654   366.0
37.8000       -1789.727    -1814.142       24.415   377.8
38.0000       -1789.706    -1814.069       24.363   377.0
38.2000       -1789.686    -1814.092       24.407   377.6
38.4000       -1789.665    -1813.021       23.357   361.4
38.6000       -1789.645    -1815.057       25.412   393.2
38.8000       -1789.623    -1814.318       24.695   382.1
39.0000       -1789.603    -1814.371       24.767   383.2
39.2000       -1789.582    -1814.231       24.648   381.4
39.4000       -1789.562    -1814.540       24.978   386.5
39.6000       -1789.541    -1813.623       24.082   372.6
39.8000       -1789.522    -1813.793       24.271   375.5
40.0000       -1789.502    -1814.815       25.314   391.7
40.2000       -1789.480    -1813.455       23.975   371.0
40.4000       -1789.461    -1814.719       25.259   390.8
40.6000       -1789.439    -1814.395       24.956   386.1
40.8000       -1789.419    -1814.777       25.358   392.4
41.0000       -1789.398    -1814.189       24.791   383.6
41.2000       -1789.379    -1814.671       25.292   391.3
41.4000       -1789.358    -1814.061       24.703   382.2
41.6000       -1789.340    -1814.735       25.396   392.9
41.8000       -1789.319    -1814.362       25.043   387.5
42.0000       -1789.297    -1813.925       24.628   381.1
42.2000       -1789.277    -1814.319       25.042   387.5
42.4000       -1789.257    -1814.572       25.315   391.7
42.6000       -1789.237    -1813.567       24.330   376.5
42.8000       -1789.217    -1814.523       25.306   391.6
43.0000       -1789.197    -1813.873       24.676   381.8
43.2000       -1789.175    -1813.919       24.743   382.8
43.4000       -1789.156    -1813.871       24.715   382.4
43.6000       -1789.135    -1813.807       24.671   381.7
43.8000       -1789.114    -1814.291       25.177   389.6
44.0000       -1789.093    -1814.053       24.959   386.2
44.2000       -1789.073    -1814.163       25.090   388.2
44.4000       -1789.053    -1814.043       24.990   386.7
44.6000       -1789.032    -1813.926       24.894   385.2
44.8000       -1789.010    -1813.679       24.668   381.7
45.0000       -1788.991    -1813.879       24.888   385.1
45.2000       -1788.970    -1814.550       25.579   395.8
45.4000       -1788.947    -1812.312       23.364   361.5
45.6000       -1788.929    -1813.761       24.832   384.2
45.8000       -1788.908    -1814.129       25.220   390.2
46.0000       -1788.887    -1813.931       25.044   387.5
46.2000       -1788.867    -1813.896       25.029   387.3
46.4000       -1788.846    -1813.131       24.285   375.8
46.6000       -1788.825    -1814.111       25.286   391.2
46.8000       -1788.804    -1813.082       24.278   375.6
47.0000       -1788.784    -1813.392       24.608   380.7
47.2000       -1788.764    -1813.933       25.169   389.4
47.4000       -1788.744    -1813.458       24.715   382.4
47.6000       -1788.723    -1814.032       25.309   391.6
47.8000       -1788.702    -1814.423       25.721   398.0
48.0000       -1788.683    -1814.556       25.872   400.3
48.2000       -1788.662    -1813.601       24.939   385.9
48.4000       -1788.641    -1812.914       24.273   375.6
48.6000       -1788.621    -1813.282       24.661   381.6
48.8000       -1788.600    -1813.540       24.940   385.9
49.0000       -1788.582    -1814.839       26.257   406.3
49.2000       -1788.561    -1813.348       24.787   383.5
49.4000       -1788.541    -1813.669       25.128   388.8
49.6000       -1788.520    -1813.418       24.898   385.2
49.8000       -1788.500    -1814.241       25.741   398.3
50.0000       -1788.481    -1814.389       25.908   400.9
50.2000       -1788.459    -1813.641       25.182   389.6
50.4000       -1788.439    -1812.766       24.327   376.4
50.6000       -1788.419    -1813.405       24.986   386.6
50.8000       -1788.396    -1812.907       24.511   379.3
51.0000       -1788.377    -1813.980       25.603   396.1
51.2000       -1788.359    -1814.071       25.712   397.8
51.4000       -1788.337    -1812.424       24.087   372.7
51.6000       -1788.318    -1813.184       24.867   384.8
51.8000       -1788.298    -1813.115       24.817   384.0
52.0000       -1788.278    -1813.526       25.248   390.7
52.2000       -1788.257    -1813.056       24.799   383.7
52.4000       -1788.236    -1813.087       24.851   384.5
52.6000       -1788.213    -1812.338       24.125   373.3
52.8000       -1788.196    -1813.639       25.444   393.7
53.0000       -1788.174    -1813.779       25.605   396.2
53.2000       -1788.155    -1812.668       24.513   379.3
53.4000       -1788.134    -1813.830       25.696   397.6
53.6000       -1788.115    -1813.731       25.617   396.4
53.8000       -1788.095    -1813.663       25.568   395.6
54.0000       -1788.072    -1812.248       24.176   374.1
54.2000       -1788.054    -1813.588       25.533   395.1
54.4000       -1788.034    -1813.484       25.451   393.8
54.6000       -1788.014    -1813.151       25.137   388.9
54.8000       -1787.992    -1813.066       25.073   387.9
55.0000       -1787.971    -1812.881       24.910   385.4
55.2000       -1787.951    -1813.706       25.755   398.5
55.4000       -1787.932    -1813.335       25.403   393.1
55.6000       -1787.911    -1813.789       25.877   400.4
55.8000       -1787.891    -1813.246       25.355   392.3
56.0000       -1787.869    -1812.230       24.361   376.9
56.2000       -1787.850    -1812.878       25.028   387.3
56.4000       -1787.829    -1813.712       25.883   400.5
56.6000       -1787.809    -1813.028       25.219   390.2
56.8000       -1787.790    -1813.428       25.638   396.7
57.0000       -1787.768    -1813.234       25.466   394.0
57.2000       -1787.749    -1813.001       25.252   390.7
57.4000       -1787.728    -1813.770       26.041   402.9
57.6000       -1787.709    -1813.031       25.323   391.8
57.8000       -1787.688    -1813.473       25.785   399.0
58.0000       -1787.668    -1812.851       25.183   389.6
58.2000       -1787.647    -1812.780       25.133   388.9
58.4000       -1787.628    -1812.878       25.250   390.7
58.6000       -1787.609    -1815.165       27.557   426.4
58.8000       -1787.586    -1812.298       24.712   382.4
59.0000       -1787.567    -1813.295       25.729   398.1
59.2000       -1787.545    -1813.042       25.497   394.5
59.4000       -1787.525    -1812.669       25.143   389.0
59.6000       -1787.505    -1812.239       24.734   382.7
59.8000       -1787.485    -1812.620       25.134   388.9
60.0000       -1787.465    -1812.792       25.327   391.9
60.2000       -1787.446    -1813.397       25.951   401.5
60.4000       -1787.424    -1812.971       25.547   395.3
60.6000       -1787.405    -1813.092       25.687   397.4
60.8000       -1787.384    -1812.954       25.570   395.6
61.0000       -1787.365    -1813.159       25.795   399.1
61.2000       -1787.345    -1812.954       25.609   396.2
61.4000       -1787.325    -1812.647       25.322   391.8
61.6000       -1787.304    -1813.073       25.770   398.7
61.8000       -1787.285    -1813.814       26.529   410.5
62.0000       -1787.265    -1814.086       26.821   415.0
62.2000       -1787.246    -1812.953       25.708   397.8
62.4000       -1787.226    -1814.131       26.906   416.3
62.6000       -1787.204    -1812.993       25.789   399.0
62.8000       -1787.183    -1812.658       25.475   394.2
63.0000       -1787.163    -1812.403       25.240   390.5
63.2000       -1787.143    -1813.630       26.487   409.8
63.4000       -1787.124    -1813.154       26.029   402.7
63.6000       -1787.102    -1814.080       26.977   417.4
63.8000       -1787.080    -1812.727       25.646   396.8
64.0000       -1787.062    -1813.401       26.339   407.5
64.2000       -1787.042    -1812.820       25.778   398.9
64.4000       -1787.022    -1813.452       26.430   408.9
64.6000       -1787.000    -1812.353       25.353   392.3
64.8000       -1786.980    -1812.162       25.182   389.6
65.0000       -1786.959    -1812.584       25.625   396.5
65.2000       -1786.939    -1812.328       25.389   392.8
65.4000       -1786.918    -1813.187       26.269   406.5
65.6000       -1786.899    -1812.845       25.946   401.5
65.8000       -1786.879    -1813.516       26.637   412.1
66.0000       -1786.859    -1812.374       25.516   394.8
66.2000       -1786.840    -1813.816       26.976   417.4
66.4000       -1786.818    -1813.049       26.231   405.9
66.6000       -1786.800    -1813.574       26.774   414.3
66.8000       -1786.779    -1812.920       26.141   404.5
67.0000       -1786.759    -1812.533       25.774   398.8
67.2000       -1786.741    -1812.954       26.213   405.6
67.4000       -1786.720    -1813.038       26.317   407.2
67.6000       -1786.700    -1812.492       25.792   399.1
67.8000       -1786.679    -1813.203       26.523   410.4
68.0000       -1786.660    -1812.328       25.668   397.2
68.2000       -1786.640    -1813.039       26.398   408.5
68.4000       -1786.621    -1813.375       26.754   414.0
